# element = Si
# msh =    957
# zp =       4.000000000000
# omega =     138.853062000000
# ir  r(ir)  rab(ir)  vloc(ir)
     1  0.6513442611103688E-04  0.8141803263879611E-06 -0.1113244522193211E+02
     2  0.6595371633350159E-04  0.8244214541687698E-06 -0.1113244522156996E+02
     3  0.6678331195832729E-04  0.8347913994790912E-06 -0.1113244522119865E+02
     4  0.6762334261151813E-04  0.8452917826439767E-06 -0.1113244522081793E+02
     5  0.6847393954957285E-04  0.8559242443696606E-06 -0.1113244522042758E+02
     6  0.6933523567999349E-04  0.8666904459999186E-06 -0.1113244522002735E+02
     7  0.7020736558205276E-04  0.8775920697756596E-06 -0.1113244521961698E+02
     8  0.7109046552782224E-04  0.8886308190977780E-06 -0.1113244521919623E+02
     9  0.7198467350346503E-04  0.8998084187933129E-06 -0.1113244521876483E+02
    10  0.7289012923079676E-04  0.9111266153849596E-06 -0.1113244521832251E+02
    11  0.7380697418911693E-04  0.9225871773639616E-06 -0.1113244521786899E+02
    12  0.7473535163731561E-04  0.9341918954664452E-06 -0.1113244521740399E+02
    13  0.7567540663625787E-04  0.9459425829532234E-06 -0.1113244521692721E+02
    14  0.7662728607144977E-04  0.9578410758931221E-06 -0.1113244521643838E+02
    15  0.7759113867598985E-04  0.9698892334498732E-06 -0.1113244521593716E+02
    16  0.7856711505380845E-04  0.9820889381726056E-06 -0.1113244521542326E+02
    17  0.7955536770320024E-04  0.9944420962900031E-06 -0.1113244521489634E+02
    18  0.8055605104065232E-04  0.1006950638008154E-05 -0.1113244521435609E+02
    19  0.8156932142497197E-04  0.1019616517812150E-05 -0.1113244521380216E+02
    20  0.8259533718171841E-04  0.1032441714771480E-05 -0.1113244521323421E+02
    21  0.8363425862794104E-04  0.1045428232849263E-05 -0.1113244521265188E+02
    22  0.8468624809722948E-04  0.1058578101215368E-05 -0.1113244521205481E+02
    23  0.8575146996507863E-04  0.1071893374563483E-05 -0.1113244521144262E+02
    24  0.8683009067457247E-04  0.1085376133432156E-05 -0.1113244521081493E+02
    25  0.8792227876239150E-04  0.1099028484529894E-05 -0.1113244521017136E+02
    26  0.8902820488514639E-04  0.1112852561064330E-05 -0.1113244520951149E+02
    27  0.9014804184604389E-04  0.1126850523075549E-05 -0.1113244520883492E+02
    28  0.9128196462188746E-04  0.1141024557773593E-05 -0.1113244520814122E+02
    29  0.9243015039041771E-04  0.1155376879880221E-05 -0.1113244520742995E+02
    30  0.9359277855799715E-04  0.1169909731974964E-05 -0.1113244520670069E+02
    31  0.9477003078764225E-04  0.1184625384845528E-05 -0.1113244520595296E+02
    32  0.9596209102740905E-04  0.1199526137842613E-05 -0.1113244520518630E+02
    33  0.9716914553913527E-04  0.1214614319239191E-05 -0.1113244520440023E+02
    34  0.9839138292754407E-04  0.1229892286594301E-05 -0.1113244520359427E+02
    35  0.9962899416971419E-04  0.1245362427121427E-05 -0.1113244520276789E+02
    36  0.1008821726449201E-03  0.1261027158061501E-05 -0.1113244520192060E+02
    37  0.1021511141648482E-03  0.1276888927060602E-05 -0.1113244520105186E+02
    38  0.1034360170041925E-03  0.1292950212552407E-05 -0.1113244520016113E+02
    39  0.1047370819316359E-03  0.1309213524145449E-05 -0.1113244519924785E+02
    40  0.1060545122412205E-03  0.1325681403015256E-05 -0.1113244519831145E+02
    41  0.1073885137841123E-03  0.1342356422301404E-05 -0.1113244519735134E+02
    42  0.1087392950007665E-03  0.1359241187509582E-05 -0.1113244519636693E+02
    43  0.1101070669534965E-03  0.1376338336918706E-05 -0.1113244519535760E+02
    44  0.1114920433594523E-03  0.1393650541993154E-05 -0.1113244519432272E+02
    45  0.1128944406240155E-03  0.1411180507800194E-05 -0.1113244519326163E+02
    46  0.1143144778746117E-03  0.1428930973432647E-05 -0.1113244519217369E+02
    47  0.1157523769949505E-03  0.1446904712436881E-05 -0.1113244519105820E+02
    48  0.1172083626596947E-03  0.1465104533246184E-05 -0.1113244518991448E+02
    49  0.1186826623695667E-03  0.1483533279619584E-05 -0.1113244518874180E+02
    50  0.1201755064868958E-03  0.1502193831086197E-05 -0.1113244518753943E+02
    51  0.1216871282716124E-03  0.1521089103395155E-05 -0.1113244518630663E+02
    52  0.1232177639176959E-03  0.1540222048971198E-05 -0.1113244518504262E+02
    53  0.1247676525900800E-03  0.1559595657376000E-05 -0.1113244518374661E+02
    54  0.1263370364620229E-03  0.1579212955775286E-05 -0.1113244518241779E+02
    55  0.1279261607529478E-03  0.1599077009411848E-05 -0.1113244518105533E+02
    56  0.1295352737667582E-03  0.1619190922084478E-05 -0.1113244517965838E+02
    57  0.1311646269306362E-03  0.1639557836632953E-05 -0.1113244517822606E+02
    58  0.1328144748343287E-03  0.1660180935429108E-05 -0.1113244517675749E+02
    59  0.1344850752699270E-03  0.1681063440874087E-05 -0.1113244517525174E+02
    60  0.1361766892721483E-03  0.1702208615901854E-05 -0.1113244517370787E+02
    61  0.1378895811591221E-03  0.1723619764489026E-05 -0.1113244517212491E+02
    62  0.1396240185736905E-03  0.1745300232171131E-05 -0.1113244517050189E+02
    63  0.1413802725252283E-03  0.1767253406565354E-05 -0.1113244516883777E+02
    64  0.1431586174319885E-03  0.1789482717899857E-05 -0.1113244516713153E+02
    65  0.1449593311639810E-03  0.1811991639549763E-05 -0.1113244516538210E+02
    66  0.1467826950863899E-03  0.1834783688579874E-05 -0.1113244516358838E+02
    67  0.1486289941035378E-03  0.1857862426294223E-05 -0.1113244516174925E+02
    68  0.1504985167034024E-03  0.1881231458792531E-05 -0.1113244515986355E+02
    69  0.1523915550026934E-03  0.1904894437533668E-05 -0.1113244515793013E+02
    70  0.1543084047924968E-03  0.1928855059906210E-05 -0.1113244515594776E+02
    71  0.1562493655844918E-03  0.1953117069806147E-05 -0.1113244515391521E+02
    72  0.1582147406577512E-03  0.1977684258221890E-05 -0.1113244515183120E+02
    73  0.1602048371061288E-03  0.2002560463826610E-05 -0.1113244514969444E+02
    74  0.1622199658862433E-03  0.2027749573578042E-05 -0.1113244514750358E+02
    75  0.1642604418660669E-03  0.2053255523325836E-05 -0.1113244514525726E+02
    76  0.1663265838741224E-03  0.2079082298426530E-05 -0.1113244514295407E+02
    77  0.1684187147493023E-03  0.2105233934366279E-05 -0.1113244514059258E+02
    78  0.1705371613913124E-03  0.2131714517391405E-05 -0.1113244513817131E+02
    79  0.1726822548117502E-03  0.2158528185146878E-05 -0.1113244513568874E+02
    80  0.1748543301858274E-03  0.2185679127322842E-05 -0.1113244513314332E+02
    81  0.1770537269047399E-03  0.2213171586309249E-05 -0.1113244513053347E+02
    82  0.1792807886286999E-03  0.2241009857858749E-05 -0.1113244512785755E+02
    83  0.1815358633406327E-03  0.2269198291757909E-05 -0.1113244512511389E+02
    84  0.1838193034005500E-03  0.2297741292506875E-05 -0.1113244512230077E+02
    85  0.1861314656006070E-03  0.2326643320007588E-05 -0.1113244511941643E+02
    86  0.1884727112208515E-03  0.2355908890260644E-05 -0.1113244511645908E+02
    87  0.1908434060856750E-03  0.2385542576070938E-05 -0.1113244511342686E+02
    88  0.1932439206209733E-03  0.2415549007762167E-05 -0.1113244511031789E+02
    89  0.1956746299120263E-03  0.2445932873900329E-05 -0.1113244510713021E+02
    90  0.1981359137621063E-03  0.2476698922026329E-05 -0.1113244510386182E+02
    91  0.2006281567518223E-03  0.2507851959397779E-05 -0.1113244510051071E+02
    92  0.2031517482992120E-03  0.2539396853740150E-05 -0.1113244509707475E+02
    93  0.2057070827205888E-03  0.2571338534007360E-05 -0.1113244509355182E+02
    94  0.2082945592921548E-03  0.2603681991151935E-05 -0.1113244508993970E+02
    95  0.2109145823123890E-03  0.2636432278904863E-05 -0.1113244508623615E+02
    96  0.2135675611652186E-03  0.2669594514565233E-05 -0.1113244508243883E+02
    97  0.2162539103839868E-03  0.2703173879799835E-05 -0.1113244507854538E+02
    98  0.2189740497162245E-03  0.2737175621452806E-05 -0.1113244507455337E+02
    99  0.2217284041892363E-03  0.2771605052365454E-05 -0.1113244507046031E+02
   100  0.2245174041765129E-03  0.2806467552206411E-05 -0.1113244506626362E+02
   101  0.2273414854649762E-03  0.2841768568312203E-05 -0.1113244506196070E+02
   102  0.2302010893230733E-03  0.2877513616538416E-05 -0.1113244505754885E+02
   103  0.2330966625697249E-03  0.2913708282121561E-05 -0.1113244505302531E+02
   104  0.2360286576441416E-03  0.2950358220551770E-05 -0.1113244504838726E+02
   105  0.2389975326765194E-03  0.2987469158456493E-05 -0.1113244504363180E+02
   106  0.2420037515596223E-03  0.3025046894495278E-05 -0.1113244503875594E+02
   107  0.2450477840212668E-03  0.3063097300265835E-05 -0.1113244503375666E+02
   108  0.2481301056977181E-03  0.3101626321221476E-05 -0.1113244502863082E+02
   109  0.2512511982080092E-03  0.3140639977600115E-05 -0.1113244502337522E+02
   110  0.2544115492291950E-03  0.3180144365364937E-05 -0.1113244501798657E+02
   111  0.2576116525725522E-03  0.3220145657156902E-05 -0.1113244501246151E+02
   112  0.2608520082607388E-03  0.3260650103259236E-05 -0.1113244500679658E+02
   113  0.2641331226059237E-03  0.3301664032574047E-05 -0.1113244500098824E+02
   114  0.2674555082888986E-03  0.3343193853611233E-05 -0.1113244499503286E+02
   115  0.2708196844391863E-03  0.3385246055489828E-05 -0.1113244498892673E+02
   116  0.2742261767161545E-03  0.3427827208951932E-05 -0.1113244498266601E+02
   117  0.2776755173911522E-03  0.3470943967389402E-05 -0.1113244497624680E+02
   118  0.2811682454306774E-03  0.3514603067883468E-05 -0.1113244496966510E+02
   119  0.2847049065805922E-03  0.3558811332257402E-05 -0.1113244496291677E+02
   120  0.2882860534513970E-03  0.3603575668142463E-05 -0.1113244495599761E+02
   121  0.2919122456045762E-03  0.3648903070057203E-05 -0.1113244494890330E+02
   122  0.2955840496400312E-03  0.3694800620500390E-05 -0.1113244494162938E+02
   123  0.2993020392846128E-03  0.3741275491057660E-05 -0.1113244493417133E+02
   124  0.3030667954817672E-03  0.3788334943522090E-05 -0.1113244492652448E+02
   125  0.3068789064823100E-03  0.3835986331028874E-05 -0.1113244491868404E+02
   126  0.3107389679363406E-03  0.3884237099204258E-05 -0.1113244491064513E+02
   127  0.3146475829863147E-03  0.3933094787328934E-05 -0.1113244490240271E+02
   128  0.3186053623612859E-03  0.3982567029516073E-05 -0.1113244489395163E+02
   129  0.3226129244723333E-03  0.4032661555904166E-05 -0.1113244488528661E+02
   130  0.3266708955091909E-03  0.4083386193864887E-05 -0.1113244487640224E+02
   131  0.3307799095380890E-03  0.4134748869226113E-05 -0.1113244486729295E+02
   132  0.3349406086008293E-03  0.4186757607510367E-05 -0.1113244485795307E+02
   133  0.3391536428151055E-03  0.4239420535188819E-05 -0.1113244484837674E+02
   134  0.3434196704760847E-03  0.4292745880951059E-05 -0.1113244483855799E+02
   135  0.3477393581592688E-03  0.4346741976990860E-05 -0.1113244482849068E+02
   136  0.3521133808246465E-03  0.4401417260308082E-05 -0.1113244481816852E+02
   137  0.3565424219221583E-03  0.4456780274026979E-05 -0.1113244480758505E+02
   138  0.3610271734984867E-03  0.4512839668731084E-05 -0.1113244479673365E+02
   139  0.3655683363051894E-03  0.4569604203814868E-05 -0.1113244478560756E+02
   140  0.3701666199081946E-03  0.4627082748852433E-05 -0.1113244477419980E+02
   141  0.3748227427986703E-03  0.4685284284983379E-05 -0.1113244476250326E+02
   142  0.3795374325052911E-03  0.4744217906316140E-05 -0.1113244475051062E+02
   143  0.3843114257079157E-03  0.4803892821348947E-05 -0.1113244473821438E+02
   144  0.3891454683526947E-03  0.4864318354408684E-05 -0.1113244472560687E+02
   145  0.3940403157686265E-03  0.4925503947107832E-05 -0.1113244471268019E+02
   146  0.3989967327855786E-03  0.4987459159819732E-05 -0.1113244469942628E+02
   147  0.4040154938537934E-03  0.5050193673172418E-05 -0.1113244468583684E+02
   148  0.4090973831648989E-03  0.5113717289561237E-05 -0.1113244467190339E+02
   149  0.4142431947744387E-03  0.5178039934680484E-05 -0.1113244465761722E+02
   150  0.4194537327259466E-03  0.5243171659074332E-05 -0.1113244464296938E+02
   151  0.4247298111765782E-03  0.5309122639707227E-05 -0.1113244462795074E+02
   152  0.4300722545243256E-03  0.5375903181554071E-05 -0.1113244461255190E+02
   153  0.4354818975368313E-03  0.5443523719210392E-05 -0.1113244459676324E+02
   154  0.4409595854818215E-03  0.5511994818522769E-05 -0.1113244458057489E+02
   155  0.4465061742591829E-03  0.5581327178239787E-05 -0.1113244456397673E+02
   156  0.4521225305346962E-03  0.5651531631683703E-05 -0.1113244454695839E+02
   157  0.4578095318754559E-03  0.5722619148443199E-05 -0.1113244452950923E+02
   158  0.4635680668869919E-03  0.5794600836087399E-05 -0.1113244451161835E+02
   159  0.4693990353521152E-03  0.5867487941901440E-05 -0.1113244449327456E+02
   160  0.4753033483715124E-03  0.5941291854643906E-05 -0.1113244447446639E+02
   161  0.4812819285061048E-03  0.6016024106326311E-05 -0.1113244445518210E+02
   162  0.4873357099212019E-03  0.6091696374015025E-05 -0.1113244443540963E+02
   163  0.4934656385324666E-03  0.6168320481655833E-05 -0.1113244441513662E+02
   164  0.4996726721537150E-03  0.6245908401921438E-05 -0.1113244439435040E+02
   165  0.5059577806465804E-03  0.6324472258082255E-05 -0.1113244437303797E+02
   166  0.5123219460720500E-03  0.6404024325900625E-05 -0.1113244435118602E+02
   167  0.5187661628439208E-03  0.6484577035549010E-05 -0.1113244432878090E+02
   168  0.5252914378841740E-03  0.6566142973552175E-05 -0.1113244430580859E+02
   169  0.5318987907803099E-03  0.6648734884753874E-05 -0.1113244428225474E+02
   170  0.5385892539446626E-03  0.6732365674308283E-05 -0.1113244425810462E+02
   171  0.5453638727757115E-03  0.6817048409696394E-05 -0.1113244423334315E+02
   172  0.5522237058214336E-03  0.6902796322767921E-05 -0.1113244420795484E+02
   173  0.5591698249446981E-03  0.6989622811808727E-05 -0.1113244418192383E+02
   174  0.5662033154907496E-03  0.7077541443634370E-05 -0.1113244415523384E+02
   175  0.5733252764567972E-03  0.7166565955709966E-05 -0.1113244412786821E+02
   176  0.5805368206637293E-03  0.7256710258296617E-05 -0.1113244409980981E+02
   177  0.5878390749300021E-03  0.7347988436625027E-05 -0.1113244407104113E+02
   178  0.5952331802477007E-03  0.7440414753096259E-05 -0.1113244404154416E+02
   179  0.6027202919608236E-03  0.7534003649510296E-05 -0.1113244401130049E+02
   180  0.6103015799458105E-03  0.7628769749322631E-05 -0.1113244398029120E+02
   181  0.6179782287943310E-03  0.7724727859929137E-05 -0.1113244394849692E+02
   182  0.6257514379983877E-03  0.7821892974979846E-05 -0.1113244391589777E+02
   183  0.6336224221377328E-03  0.7920280276721660E-05 -0.1113244388247337E+02
   184  0.6415924110696512E-03  0.8019905138370639E-05 -0.1113244384820285E+02
   185  0.6496626501211303E-03  0.8120783126514129E-05 -0.1113244381306477E+02
   186  0.6578344002834386E-03  0.8222930003542982E-05 -0.1113244377703718E+02
   187  0.6661089384091661E-03  0.8326361730114578E-05 -0.1113244374009756E+02
   188  0.6744875574117294E-03  0.8431094467646617E-05 -0.1113244370222282E+02
   189  0.6829715664673932E-03  0.8537144580842415E-05 -0.1113244366338930E+02
   190  0.6915622912198352E-03  0.8644528640247941E-05 -0.1113244362357270E+02
   191  0.7002610739872734E-03  0.8753263424840918E-05 -0.1113244358274816E+02
   192  0.7090692739722151E-03  0.8863365924652690E-05 -0.1113244354089016E+02
   193  0.7179882674738276E-03  0.8974853343422845E-05 -0.1113244349797254E+02
   194  0.7270194481029906E-03  0.9087743101287382E-05 -0.1113244345396847E+02
   195  0.7361642270000535E-03  0.9202052837500669E-05 -0.1113244340885044E+02
   196  0.7454240330553218E-03  0.9317800413191522E-05 -0.1113244336259027E+02
   197  0.7548003131323325E-03  0.9435003914154157E-05 -0.1113244331515904E+02
   198  0.7642945322939235E-03  0.9553681653674044E-05 -0.1113244326652709E+02
   199  0.7739081740311537E-03  0.9673852175389421E-05 -0.1113244321666406E+02
   200  0.7836427404951063E-03  0.9795534256188829E-05 -0.1113244316553875E+02
   201  0.7934997527315933E-03  0.9918746909144917E-05 -0.1113244311311922E+02
   202  0.8034807509188332E-03  0.1004350938648542E-04 -0.1113244305937271E+02
   203  0.8135872946080984E-03  0.1016984118260123E-04 -0.1113244300426563E+02
   204  0.8238209629674015E-03  0.1029776203709252E-04 -0.1113244294776354E+02
   205  0.8341833550282467E-03  0.1042729193785308E-04 -0.1113244288983112E+02
   206  0.8446760899354727E-03  0.1055845112419341E-04 -0.1113244283043216E+02
   207  0.8553008072002587E-03  0.1069126009000324E-04 -0.1113244276952954E+02
   208  0.8660591669562928E-03  0.1082573958695366E-04 -0.1113244270708520E+02
   209  0.8769528502191740E-03  0.1096191062773968E-04 -0.1113244264306012E+02
   210  0.8879835591490780E-03  0.1109979448936348E-04 -0.1113244257741427E+02
   211  0.8991530173167141E-03  0.1123941271645893E-04 -0.1113244251010662E+02
   212  0.9104629699726478E-03  0.1138078712465810E-04 -0.1113244244109512E+02
   213  0.9219151843199909E-03  0.1152393980399989E-04 -0.1113244237033662E+02
   214  0.9335114497905343E-03  0.1166889312238168E-04 -0.1113244229778692E+02
   215  0.9452535783243529E-03  0.1181566972905441E-04 -0.1113244222340065E+02
   216  0.9571434046529162E-03  0.1196429255816145E-04 -0.1113244214713135E+02
   217  0.9691827865857810E-03  0.1211478483232226E-04 -0.1113244206893133E+02
   218  0.9813736053008674E-03  0.1226717006626084E-04 -0.1113244198875172E+02
   219  0.9937177656384013E-03  0.1242147207048002E-04 -0.1113244190654242E+02
   220  0.1006217196398553E-02  0.1257771495498191E-04 -0.1113244182225204E+02
   221  0.1018873850642804E-02  0.1273592313303505E-04 -0.1113244173582791E+02
   222  0.1031689705999134E-02  0.1289612132498918E-04 -0.1113244164721602E+02
   223  0.1044666764971016E-02  0.1305833456213770E-04 -0.1113244155636097E+02
   224  0.1057807055250314E-02  0.1322258819062893E-04 -0.1113244146320599E+02
   225  0.1071112630034123E-02  0.1338890787542653E-04 -0.1113244136769287E+02
   226  0.1084585568345568E-02  0.1355731960431960E-04 -0.1113244126976191E+02
   227  0.1098227975358674E-02  0.1372784969198342E-04 -0.1113244116935190E+02
   228  0.1112041982727292E-02  0.1390052478409115E-04 -0.1113244106640009E+02
   229  0.1126029748918178E-02  0.1407537186147722E-04 -0.1113244096084215E+02
   230  0.1140193459548259E-02  0.1425241824435323E-04 -0.1113244085261210E+02
   231  0.1154535327726134E-02  0.1443169159657668E-04 -0.1113244074164231E+02
   232  0.1169057594397888E-02  0.1461321992997360E-04 -0.1113244062786341E+02
   233  0.1183762528697233E-02  0.1479703160871541E-04 -0.1113244051120430E+02
   234  0.1198652428300069E-02  0.1498315535375086E-04 -0.1113244039159209E+02
   235  0.1213729619783506E-02  0.1517162024729383E-04 -0.1113244026895202E+02
   236  0.1228996458989384E-02  0.1536245573736731E-04 -0.1113244014320743E+02
   237  0.1244455331392394E-02  0.1555569164240492E-04 -0.1113244001427976E+02
   238  0.1260108652472797E-02  0.1575135815590997E-04 -0.1113243988208842E+02
   239  0.1275958868093860E-02  0.1594948585117325E-04 -0.1113243974655081E+02
   240  0.1292008454884022E-02  0.1615010568605028E-04 -0.1113243960758222E+02
   241  0.1308259920623870E-02  0.1635324900779837E-04 -0.1113243946509580E+02
   242  0.1324715804637992E-02  0.1655894755797490E-04 -0.1113243931900251E+02
   243  0.1341378678191743E-02  0.1676723347739679E-04 -0.1113243916921105E+02
   244  0.1358251144893018E-02  0.1697813931116273E-04 -0.1113243901562782E+02
   245  0.1375335841099067E-02  0.1719169801373833E-04 -0.1113243885815682E+02
   246  0.1392635436328428E-02  0.1740794295410535E-04 -0.1113243869669967E+02
   247  0.1410152633678056E-02  0.1762690792097570E-04 -0.1113243853115545E+02
   248  0.1427890170245673E-02  0.1784862712807092E-04 -0.1113243836142071E+02
   249  0.1445850817557456E-02  0.1807313521946821E-04 -0.1113243818738939E+02
   250  0.1464037382001090E-02  0.1830046727501363E-04 -0.1113243800895273E+02
   251  0.1482452705264267E-02  0.1853065881580334E-04 -0.1113243782599923E+02
